# w,mag,phase
1.000000000000000021e-02,4.000000000392000738e-06,8.999988540844097429e+01
1.028073223830865308e-02,4.112292895749412141e-06,8.999988219148647772e+01
1.056934553557988335e-02,4.227738214694792444e-06,8.999987888422170101e+01
1.086606113854597482e-02,4.346424455921315930e-06,8.999987548411135663e+01
1.117110650504824117e-02,4.468442602565776105e-06,8.999987198854893222e+01
1.148471547840289493e-02,4.593886191954967560e-06,8.999986839485481482e+01
1.180712846666190363e-02,4.722851387309998889e-06,8.999986470027411656e+01
1.213859262690628396e-02,4.855437051463632764e-06,8.999986090197461408e+01
1.247936205471311330e-02,4.991744822647084214e-06,8.999985699704464537e+01
1.282969797894147577e-02,5.131879192404409799e-06,8.999985298249065124e+01
1.318986896198669906e-02,5.275947585694193362e-06,8.999984885523520006e+01
1.356015110565633383e-02,5.424060443239949245e-06,8.999984461211438713e+01
1.394082826282577910e-02,5.576331306192379114e-06,8.999984024987550413e+01
1.433219225503573960e-02,5.732876903168344790e-06,8.999983576517449535e+01
1.473454309619835062e-02,5.893817239733338012e-06,8.999983115457348504e+01
1.514818922258345801e-02,6.059275690395983947e-06,8.999982641453803467e+01
1.557344772926134296e-02,6.229379093185145618e-06,8.999982154143449975e+01
1.601064461318317880e-02,6.404257846882111556e-06,8.999981653152723027e+01
1.646011502308550659e-02,6.584046010982377606e-06,8.999981138097571431e+01
1.692220351641037304e-02,6.768881408463726827e-06,8.999980608583165065e+01
1.739726432343801504e-02,6.958905731439299365e-06,8.999980064203579389e+01
1.788566161883461958e-02,7.154264649776702356e-06,8.999979504541502706e+01
1.838776980082327747e-02,7.355107922766410487e-06,8.999978929167907893e+01
1.890397377819221306e-02,7.561589513925053280e-06,8.999978337641722703e+01
1.943466926536021114e-02,7.773867709021600064e-06,8.999977729509488711e+01
1.998026308572550813e-02,7.992105237416929458e-06,8.999977104305024511e+01
2.054117348353064199e-02,8.216469396809775747e-06,8.999976461549053397e+01
2.111783044448244454e-02,8.447132181484742278e-06,8.999975800748850929e+01
2.171067602537265009e-02,8.684270414160554725e-06,8.999975121397856981e+01
2.232016469295234479e-02,8.928065881539852552e-06,8.999974422975289201e+01
2.294676367231936187e-02,9.178705473664165889e-06,8.999973704945749375e+01
2.359095330508634986e-02,9.436381327181168178e-06,8.999972966758804205e+01
2.425322741760353035e-02,9.701290972633768312e-06,8.999972207848573191e+01
2.493409369951879104e-02,9.973637485884204168e-06,8.999971427633283838e+01
2.563407409296514922e-02,1.025362964378902350e-05,8.999970625514836797e+01
2.635370519267394435e-02,1.054148208424440078e-05,8.999969800878338333e+01
2.709353865732051433e-02,1.083741547072441327e-05,8.999968953091635626e+01
2.785414163241767618e-02,1.114165666143847741e-05,8.999968081504825079e+01
2.863609718508115798e-02,1.145443888323754667e-05,8.999967185449764884e+01
2.944000475100035097e-02,1.177600191040243799e-05,8.999966264239550640e+01
3.026648059395692023e-02,1.210659224845132636e-05,8.999965317167993817e+01
3.111615827824361358e-02,1.244646332310728626e-05,8.999964343509086007e+01
3.198968915434537846e-02,1.279587567457079541e-05,8.999963342516434750e+01
3.288774285825510346e-02,1.315509715724607346e-05,8.999962313422690841e+01
3.381100782480685185e-02,1.352440314507440965e-05,8.999961255438968522e+01
3.476019181541977615e-02,1.390407674263180538e-05,8.999960167754231577e+01
3.573602246065788607e-02,1.429440900215292347e-05,8.999959049534676581e+01
3.673924781802074407e-02,1.469569914664743031e-05,8.999957899923096249e+01
3.777063694539368327e-02,1.510825479928015348e-05,8.999956718038210113e+01
3.883098049059605095e-02,1.553239221919045491e-05,8.999955502974005128e+01
3.992109129748053209e-02,1.596843654393203225e-05,8.999954253799030823e+01
4.104180502904709177e-02,1.641672203871859606e-05,8.999952969555687332e+01
4.219398080805026457e-02,1.687759235266687093e-05,8.999951649259493536e+01
4.337850187558989212e-02,1.735140078223299344e-05,8.999950291898325361e+01
4.459627626819093194e-02,1.783851054204454450e-05,8.999948896431656920e+01
4.584823751389095758e-02,1.833929504333569506e-05,8.999947461789737702e+01
4.713534534786909674e-02,1.885413818019887025e-05,8.999945986872795345e+01
4.845858644816495447e-02,1.938343462387249954e-05,8.999944470550178721e+01
4.981897519205162606e-02,1.992759012529036043e-05,8.999942911659496758e+01
5.121755443364241212e-02,2.048702182612445019e-05,8.999941309005727419e+01
5.265539630332755766e-02,2.106215857855983542e-05,8.999939661360299681e+01
5.413360302965380955e-02,2.165344127404670251e-05,8.999937967460152777e+01
5.565330778427646230e-02,2.226132318128138087e-05,8.999936226006765594e+01
5.721567555063251931e-02,2.288627029367584957e-05,8.999934435665167598e+01
5.882190401699955579e-02,2.352876168658152631e-05,8.999932595062908547e+01
6.047322449462649158e-02,2.418928988454188250e-05,8.999930702789008308e+01
6.217090286163826779e-02,2.486836123885458763e-05,8.999928757392878254e+01
6.391624053344005518e-02,2.556649631573353922e-05,8.999926757383207132e+01
6.571057546036269958e-02,2.628423029536738206e-05,8.999924701226814250e+01
6.755528315331643663e-02,2.702211338218140699e-05,8.999922587347482761e+01
6.945177773823696388e-02,2.778071122661639403e-05,8.999920414124740375e+01
7.140151304013399314e-02,2.856060535874845773e-05,8.999918179892628700e+01
7.340598369757211916e-02,2.936239363408195877e-05,8.999915882938414313e+01
7.546672630843891116e-02,3.018669069185721891e-05,8.999913521501291314e+01
7.758532060787835805e-02,3.103412842622453772e-05,8.999911093771012816e+01
7.976339067929276438e-02,3.190535647064555704e-05,8.999908597886515338e+01
8.200260619934131301e-02,3.280104269589339725e-05,8.999906031934492034e+01
8.430468371788971127e-02,3.372187372203326551e-05,8.999903393947919028e+01
8.667138797389233040e-02,3.466855544477612542e-05,8.999900681904554745e+01
8.910453324821512866e-02,3.564181357660877863e-05,8.999897893725388087e+01
9.160598475443709754e-02,3.664239420311542124e-05,8.999895027273039716e+01
9.417766006869518480e-02,3.767106435491659056e-05,8.999892080350129220e+01
9.682153059967085751e-02,3.872861259566504424e-05,8.999889050697586867e+01
9.953962309984233647e-02,3.981584962654779086e-05,8.999885935992926989e+01
1.023340212191641702e-01,4.093360890775940141e-05,8.999882733848460248e+01
1.052068671023622809e-01,4.208274729742132628e-05,8.999879441809468972e+01
1.081603630310710024e-01,4.326414570843846311e-05,8.999876057352324210e+01
1.111967731120698938e-01,4.447870978379551673e-05,8.999872577882548796e+01
1.143184250129149759e-01,4.572737059081144034e-05,8.999869000732834934e+01
1.175277117462945192e-01,4.701108533488373905e-05,8.999865323160987884e+01
1.208270935044776506e-01,4.833083809327017114e-05,8.999861542347832710e+01
1.242190995452617380e-01,4.968764056947011450e-05,8.999857655395055644e+01
1.277063301308644094e-01,5.108253286878401992e-05,8.999853659322972987e+01
1.312914585212465457e-01,5.251658429564543310e-05,8.999849551068253106e+01
1.349772330233942608e-01,5.399089417333685821e-05,8.999845327481567381e+01
1.387664790981308627e-01,5.550659268671798212e-05,8.999840985325175780e+01
1.426621015260737535e-01,5.706484174861207087e-05,8.999836521270438539e+01
1.466670866343968427e-01,5.866683589051488337e-05,8.999831931895280945e+01
1.507845045861051780e-01,6.031380317830885150e-05,8.999827213681548699e+01
1.550175117335770292e-01,6.200700615368467624e-05,8.999822363012329163e+01
1.593693530381775358e-01,6.374774280199178844e-05,8.999817376169168881e+01
1.638433645577983822e-01,6.553734754725985779e-05,8.999812249329220037e+01
1.684429760042315261e-01,6.737719227515421520e-05,8.999806978562322968e+01
1.731717133723353619e-01,6.926868738464898531e-05,8.999801559827983510e+01
1.780332016430113962e-01,7.121328286922475861e-05,8.999795988972273619e+01
1.830311675620611978e-01,7.321246942841915385e-05,8.999790261724653817e+01
1.881694424970555557e-01,7.526777961058288735e-05,8.999784373694700434e+01
1.934519653744045387e-01,7.738078898771695103e-05,8.999778320368724849e+01
1.988827856988809872e-01,7.955311736329177602e-05,8.999772097106340141e+01
2.044660666579116715e-01,8.178643001397475161e-05,8.999765699136871433e+01
2.102060883130158486e-01,8.408243896621706655e-05,8.999759121555732122e+01
2.161072508808377646e-01,8.644290430867962568e-05,8.999752359320636685e+01
2.221740781062884751e-01,8.886963554150353103e-05,8.999745407247748119e+01
2.284112207303824471e-01,9.136449296345983552e-05,8.999738260007701740e+01
2.348234600554276463e-01,9.392938909804164334e-05,8.999730912121523829e+01
2.414157116103018974e-01,9.656629015959277426e-05,8.999723357956423797e+01
2.481930289186255190e-01,9.927721756059585951e-05,8.999715591721481189e+01
2.551606073727185064e-01,1.020642494612761166e-04,8.999707607463209058e+01
2.623237882163123591e-01,1.049295223627090480e-04,8.999699399060975225e+01
2.696880626390692481e-01,1.078752327446526045e-04,8.999690960222338276e+01
2.772590759860482645e-01,1.109036387493608230e-04,8.999682284478187455e+01
2.850426320853434725e-01,1.140170619126679749e-04,8.999673365177820017e+01
2.930446976972143069e-01,1.172178889436726050e-04,8.999664195483812534e+01
3.012714070881163941e-01,1.205085735543843443e-04,8.999654768366801250e+01
3.097290667331408232e-01,1.238916383407370097e-04,8.999645076600079108e+01
3.184241601504653185e-01,1.273696767164099388e-04,8.999635112754062050e+01
3.273633528715245711e-01,1.309453549009400848e-04,8.999624869190598986e+01
3.365534975507094573e-01,1.346214139636499774e-04,8.999614338057098450e+01
3.460016392185110701e-01,1.384006719249576526e-04,8.999603511280530199e+01
3.557150206821386162e-01,1.422860259166801376e-04,8.999592380561220750e+01
3.657010880777491479e-01,1.462804544029875568e-04,8.999580937366499711e+01
3.759674965785467782e-01,1.503870194637094615e-04,8.999569172924152838e+01
3.865221162631263807e-01,1.546088691417452088e-04,8.999557078215703143e+01
3.973730381485608421e-01,1.589492398563780308e-04,8.999544643969490210e+01
4.085285803928563331e-01,1.634114588843430655e-04,8.999531860653571869e+01
4.199972946715306299e-01,1.679989469105520167e-04,8.999518718468404188e+01
4.317879727332023521e-01,1.727152206504305328e-04,8.999505207339339563e+01
4.439096531392170975e-01,1.775638955458788758e-04,8.999491316908898852e+01
4.563716281924758422e-01,1.825486885369229941e-04,8.999477036528834617e+01
4.691834510607796327e-01,1.876734209111829868e-04,8.999462355251962720e+01
4.823549431001467602e-01,1.929420212333409152e-04,8.999447261823772237e+01
4.958962013837214244e-01,1.983585283568585771e-04,8.999431744673805156e+01
5.098176064420424369e-01,2.039270945202518016e-04,8.999415791906768902e+01
5.241298302206058857e-01,2.096519885302970232e-04,8.999399391293434292e+01
5.388438442608223244e-01,2.155375990346115672e-04,8.999382530261252100e+01
5.539709281106403038e-01,2.215884378861172519e-04,8.999365195884713842e+01
5.695226779712825316e-01,2.278091436019679501e-04,8.999347374875443961e+01
5.855110155867241373e-01,2.342044849195938823e-04,8.999329053572020598e+01
6.019481973827274235e-01,2.407793644525905768e-04,8.999310217929486555e+01
6.188468238624386109e-01,2.475388224492563235e-04,8.999290853508591681e+01
6.362198492657489268e-01,2.544880406566611773e-04,8.999270945464724036e+01
6.540805914998255588e-01,2.616323462932127787e-04,8.999250478536526998e+01
6.724427423484249378e-01,2.689772161327642973e-04,8.999229437034198043e+01
6.913203779678130934e-01,2.765282807033993869e-04,8.999207804827460677e+01
7.107279696773418642e-01,2.842913286041158071e-04,8.999185565333196735e+01
7.306803950529503489e-01,2.922723109427171543e-04,8.999162701502743289e+01
7.511929493320964601e-01,3.004773458983205146e-04,8.999139195808797353e+01
7.722813571388642551e-01,3.089127234119796788e-04,8.999115030232012202e+01
7.939617845382279659e-01,3.175849100090228218e-04,8.999090186247148893e+01
8.162508514287228900e-01,3.265005537568047012e-04,8.999064644808898095e+01
8.391656442830156548e-01,3.356664893616819628e-04,8.999038386337267070e+01
8.627237292461450435e-01,3.450897434091177145e-04,8.999011390702564483e+01
8.869431656014709064e-01,3.547775397509411754e-04,8.998983637209981623e+01
9.118425196146571210e-01,3.647373050438971662e-04,8.998955104583708930e+01
9.374408787662995568e-01,3.749766744437356240e-04,8.998925770950633307e+01
9.637578663841088744e-01,3.855034974592134555e-04,8.998895613823565043e+01
9.908136566858670724e-01,3.963258439705039408e-04,8.998864610083997206e+01
1.018628990244687449e+00,4.074520104166326050e-04,8.998832735964376184e+01
1.047225189888434382e+00,4.188905261566943814e-04,8.998799967029887625e+01
1.076624177045493402e+00,4.306501600097342275e-04,8.998766278159708065e+01
1.106848488549411869e+00,4.427399269783131646e-04,8.998731643527750634e+01
1.137921293915315157e+00,4.551690951609333922e-04,8.998696036582869340e+01
1.169866413101307012e+00,4.679471928586161457e-04,8.998659430028480699e+01
1.202708334768511911e+00,4.810840158811131601e-04,8.998621795801649625e+01
1.236472235053714952e+00,4.945896350583454601e-04,8.998583105051571351e+01
1.271183996869028832e+00,5.084744039628610705e-04,8.998543328117433759e+01
1.306870229743346323e+00,5.227489668492287878e-04,8.998502434505685699e+01
1.343558290220826290e+00,5.374242668164925076e-04,8.998460392866647339e+01
1.381276302832009417e+00,5.525115541999390829e-04,8.998417170970473933e+01
1.420053181653683216e+00,5.680223951986557596e-04,8.998372735682434609e+01
1.459918652473978673e+00,5.839686807454912577e-04,8.998327052937503368e+01
1.500903275579736684e+00,6.003626356262671245e-04,8.998280087714232423e+01
1.543038469183564576e+00,6.172168278552314907e-04,8.998231804007905055e+01
1.586356533508589628e+00,6.345441783139945530e-04,8.998182164802904026e+01
1.630890675549332647e+00,6.523579706613476335e-04,8.998131132044331082e+01
1.676675034527699282e+00,6.706718615216028263e-04,8.998078666608823539e+01
1.723744708063619901e+00,6.894998909593076262e-04,8.998024728274538120e+01
1.772135779080358464e+00,7.088564932483845237e-04,8.997969275690306290e+01
1.821885343465167173e+00,7.287565079440194195e-04,8.997912266343908527e+01
1.873031538506436444e+00,7.492151912658061600e-04,8.997853656529468935e+01
1.925613572129198703e+00,7.702482278009518913e-04,8.997793401313931838e+01
1.979671752951332575e+00,7.918717425365410243e-04,8.997731454502579140e+01
2.035247521183577657e+00,8.141023132301716510e-04,8.997667768603599825e+01
2.092383480396976747e+00,8.369569831284826228e-04,8.997602294791654742e+01
2.151123430182167340e+00,8.604532740434223505e-04,8.997534982870412534e+01
2.211512399725488631e+00,8.846091997963290718e-04,8.997465781234032534e+01
2.273596682327717389e+00,9.094432800402452383e-04,8.997394636827571901e+01
2.337423870891814914e+00,9.349745544711188499e-04,8.997321495106271527e+01
2.403042894406969499e+00,9.612225974389176399e-04,8.997246299993695118e+01
2.470504055456825387e+00,9.882075329699358240e-04,8.997168993838697304e+01
2.539859068780726314e+00,1.015950050211947503e-03,8.997089517371168199e+01
2.611161100917459343e+00,1.044471419314158857e-03,8.997007809656554400e+01
2.684464810961962655e+00,1.073793507754279130e-03,8.996923808049066906e+01
2.759826392466180334e+00,1.103938797125372925e-03,8.996837448143608640e+01
2.837303616516211324e+00,1.134930400395519831e-03,8.996748663726314987e+01
2.916955876018795912e+00,1.166792079653706420e-03,8.996657386723718730e+01
2.998844231231027724e+00,1.199548264355717805e-03,8.996563547150476836e+01
3.083031456568277040e+00,1.233224070084259789e-03,8.996467073055636376e+01
3.169582088726115021e+00,1.267845317837883266e-03,8.996367890467357142e+01
3.258562476153226584e+00,1.303438553863777404e-03,8.996265923336115122e+01
3.350040829913132789e+00,1.340031070049871710e-03,8.996161093476258941e+01
3.444087275973823470e+00,1.377650924892203635e-03,8.996053320505964734e+01
3.540773908965269889e+00,1.416326965053903847e-03,8.995942521785457302e+01
3.640174847446141282e+00,1.456088847532707774e-03,8.995828612353508902e+01
3.742366290721980793e+00,1.496967062454323486e-03,8.995711504862140373e+01
3.847426577258505898e+00,1.538992956509571295e-03,8.995591109509479111e+01
3.955436244734701567e+00,1.582198757053663186e-03,8.995467333970712787e+01
4.066478091781857707e+00,1.626617596886616429e-03,8.995340083327100444e+01
4.180637241455757547e+00,1.672283539734279291e-03,8.995209259992974182e+01
4.298001206490798864e+00,1.719231606450103344e-03,8.995074763640670312e+01
4.418659956385941001e+00,1.767497801958324436e-03,8.994936491123347366e+01
4.542705986374042659e+00,1.817119142959922832e-03,8.994794336395602841e+01
4.670234388327335395e+00,1.868133686423277063e-03,8.994648190431860257e+01
4.801342923653449724e+00,1.920580558882168699e-03,8.994497941142431330e+01
4.936132098237917099e+00,1.974499986564466625e-03,8.994343473287194968e+01
5.074705239490466369e+00,2.029933326375472045e-03,8.994184668386836279e+01
5.217168575554349097e+00,2.086923097760749225e-03,8.994021404631568828e+01
5.363631316739239985e+00,2.145513015473899006e-03,8.993853556787252046e+01
5.514205739240302329e+00,2.205748023275667848e-03,8.993680996098848368e+01
5.669007271207433973e+00,2.267674328591430880e-03,8.993503590191127728e+01
5.828154581230846176e+00,2.331339438155133684e-03,8.993321202966555461e+01
5.991769669310619051e+00,2.396792194668440242e-03,8.993133694500268405e+01
6.159977960380168760e+00,2.464082814504961125e-03,8.992940920932046822e+01
6.332908400455115050e+00,2.533262926490176779e-03,8.992742734355219625e+01
6.510693555481461559e+00,2.604385611788849909e-03,8.992538982702379258e+01
6.693469712958660445e+00,2.677505444932544963e-03,8.992329509627850825e+01
6.881376986415670416e+00,2.752678536021119574e-03,8.992114154386780456e+01
7.074559422819878485e+00,2.829962574132979976e-03,8.991892751710759057e+01
7.273165113001454074e+00,2.909416871980206529e-03,8.991665131679891942e+01
7.477346305177587915e+00,2.991102411845685417e-03,8.991431119591193522e+01
7.687259521663728279e+00,3.075081892840748725e-03,8.991190535823179175e+01
7.903065678861348253e+00,3.161419779523068005e-03,8.990943195696583246e+01
8.124930210614047965e+00,3.250182351915868739e-03,8.990688909331052514e+01
8.353023195026779035e+00,3.341437756971015870e-03,8.990427481497695794e+01
8.587519484845170581e+00,3.435256061519872343e-03,8.990158711467368846e+01
8.828598841495150396e+00,3.531709306757530899e-03,8.989882392854589455e+01
9.076446072885357097e+00,3.630871564307400212e-03,8.989598313456892242e+01
9.331251175078250526e+00,3.732818993915055020e-03,8.989306255089532272e+01
9.593209477938241747e+00,3.837629902821762615e-03,8.989005993415366902e+01
9.862521794868785108e+00,3.945384806870154588e-03,8.988697297769785166e+01
1.013939457675291678e+01,4.056166493396235265e-03,8.988379930980498500e+01
1.042404007021556822e+01,4.170060085964127916e-03,8.988053649182076299e+01
1.071667648032863340e+01,4.287153111001881442e-03,8.987718201625001768e+01
1.101752813788387364e+01,4.407535566399071493e-03,8.987373330479131539e+01
1.132682567136153828e+01,4.531299992129072390e-03,8.987018770631341624e+01
1.164480618372686749e+01,4.658541542961545066e-03,8.986654249477179235e+01
1.197171343418966849e+01,4.789358063333000806e-03,8.986279486706331454e+01
1.230779802506664566e+01,4.923850164446343276e-03,8.985894194081706132e+01
1.265331759388942956e+01,5.062121303672849175e-03,8.985498075211916102e+01
1.300853701090570524e+01,5.204277866333253608e-03,8.985090825316935081e+01
1.337372858212496318e+01,5.350429249937835481e-03,8.984672130986710670e+01
1.374917225806419019e+01,5.500687950968530249e-03,8.984241669932478658e+01
1.413515584835395700e+01,5.655169654290023891e-03,8.983799110730566895e+01
1.453197524236895433e+01,5.813993325280162987e-03,8.983344112558366135e+01
1.493993463605257688e+01,5.977281304774416729e-03,8.982876324922266065e+01
1.535934676510897035e+01,6.145159406922939653e-03,8.982395387377223983e+01
