# w,mag,phase
1.000000000000000021e-02,2.000000000196000002e-10,1.799998854084409459e+02
1.028073223830865308e-02,2.113869107334930697e-10,1.799998821914864777e+02
1.056934553557988335e-02,2.234221301254243794e-10,1.799998788842217152e+02
1.086606113854597482e-02,2.361425693605620851e-10,1.799998754841113282e+02
1.117110650504824117e-02,2.495872411247861582e-10,1.799998719885489322e+02
1.148471547840289493e-02,2.637973792738326896e-10,1.799998683948548148e+02
1.180712846666190363e-02,2.788165652946076914e-10,1.799998647002741166e+02
1.213859262690628396e-02,2.946908619665201610e-10,1.799998609019746425e+02
1.247936205471311330e-02,3.114689546327633532e-10,1.799998569970446169e+02
1.282969797894147577e-02,3.292023005148133487e-10,1.799998529824906655e+02
1.318986896198669906e-02,3.479452865280824983e-10,1.799998488552352001e+02
1.356015110565633383e-02,3.677553960827348989e-10,1.799998446121144013e+02
1.394082826282577910e-02,3.886933853812344774e-10,1.799998402498755183e+02
1.433219225503573960e-02,4.108234697533130627e-10,1.799998357651745096e+02
1.473454309619835062e-02,4.342135205998383013e-10,1.799998311545734566e+02
1.514818922258345801e-02,4.589352735495919035e-10,1.799998264145380062e+02
1.557344772926134296e-02,4.850645484673614841e-10,1.799998215414345282e+02
1.601064461318317880e-02,5.126814819880958336e-10,1.799998165315272445e+02
1.646011502308550659e-02,5.418707732902859682e-10,1.799998113809757285e+02
1.692220351641037304e-02,5.727219438623483558e-10,1.799998060858316364e+02
1.739726432343801504e-02,6.053296120586861129e-10,1.799998006420357797e+02
1.788566161883461958e-02,6.397937832874822156e-10,1.799997950454150555e+02
1.838776980082327747e-02,6.762201567202011161e-10,1.799997892916790931e+02
1.890397377819221306e-02,7.147204494634619389e-10,1.799997833764172412e+02
1.943466926536021114e-02,7.554127391874912811e-10,1.799997772950949013e+02
1.998026308572550813e-02,7.984218262619747448e-10,1.799997710430502309e+02
2.054117348353064199e-02,8.438796165099497869e-10,1.799997646154905624e+02
2.111783044448244454e-02,8.919255257536294294e-10,1.799997580074885377e+02
2.171067602537265009e-02,9.427069073928427543e-10,1.799997512139785840e+02
2.232016469295234479e-02,9.963795043274909886e-10,1.799997442297529062e+02
2.294676367231936187e-02,1.053107926609978494e-09,1.799997370494575080e+02
2.359095330508634986e-02,1.113066156292598228e-09,1.799997296675880420e+02
2.425322741760353035e-02,1.176438081018154542e-09,1.799997220784857177e+02
2.493409369951879104e-02,1.243418057990348650e-09,1.799997142763328100e+02
2.563407409296514922e-02,1.314211510053558352e-09,1.799997062551483396e+02
2.635370519267394435e-02,1.389035555710154969e-09,1.799996980087834118e+02
2.709353865732051433e-02,1.468119675007576140e-09,1.799996895309163563e+02
2.785414163241767618e-02,1.551706413337385855e-09,1.799996808150482650e+02
2.863609718508115798e-02,1.640052125304813773e-09,1.799996718544976488e+02
2.944000475100035097e-02,1.733427760950184675e-09,1.799996626423954922e+02
3.026648059395692023e-02,1.832119696733506345e-09,1.799996531716799382e+02
3.111615827824361358e-02,1.936430613830800937e-09,1.799996434350908601e+02
3.198968915434537846e-02,2.046680426435846101e-09,1.799996334251643475e+02
3.288774285825510346e-02,2.163207262914357697e-09,1.799996231342269084e+02
3.381100782480685185e-02,2.286368502819765829e-09,1.799996125543896710e+02
3.476019181541977615e-02,2.416541872950992341e-09,1.799996016775423300e+02
3.573602246065788607e-02,2.554126605813835110e-09,1.799995904953467800e+02
3.673924781802074407e-02,2.699544664038779282e-09,1.799995789992309483e+02
3.777063694539368327e-02,2.853242034510561399e-09,1.799995671803820869e+02
3.883098049059605095e-02,3.015690096178351523e-09,1.799995550297400371e+02
3.992109129748053209e-02,3.187387065741675518e-09,1.799995425379903224e+02
4.104180502904709177e-02,3.368859525645745721e-09,1.799995296955568449e+02
4.219398080805026457e-02,3.560664039072609550e-09,1.799995164925948927e+02
4.337850187558989212e-02,3.763388856881028705e-09,1.799995029189832678e+02
4.459627626819093194e-02,3.977655721730274127e-09,1.799994889643165834e+02
4.584823751389095758e-02,4.204121774920889586e-09,1.799994746178973912e+02
4.713534534786909674e-02,4.443481571800589188e-09,1.799994598687279677e+02
4.845858644816495447e-02,4.696469211916396339e-09,1.799994447055017872e+02
4.981897519205162606e-02,4.963860590446067280e-09,1.799994291165949676e+02
5.121755443364241212e-02,5.246475777813745181e-09,1.799994130900572884e+02
5.265539630332755766e-02,5.545181534787991528e-09,1.799993966136029826e+02
5.413360302965380955e-02,5.860893970775826052e-09,1.799993796746015278e+02
5.565330778427646230e-02,6.194581353465504549e-09,1.799993622600676701e+02
5.721567555063251931e-02,6.547267078435182828e-09,1.799993443566517044e+02
5.882190401699955579e-02,6.920032807834775796e-09,1.799993259506290997e+02
6.047322449462649158e-02,7.314021787767494793e-09,1.799993070278900973e+02
6.217090286163826779e-02,7.730442354544793286e-09,1.799992875739287683e+02
6.391624053344005518e-02,8.170571640568667758e-09,1.799992675738320429e+02
6.571057546036269958e-02,8.635759491206446200e-09,1.799992470122681425e+02
6.755528315331643663e-02,9.127432604671429911e-09,1.799992258734748418e+02
6.945177773823696388e-02,9.647098907605530725e-09,1.799992041412474180e+02
7.140151304013399314e-02,1.019635217978399424e-08,1.799991817989262586e+02
7.340598369757211916e-02,1.077687694212557555e-08,1.799991588293841573e+02
7.546672630843891116e-02,1.139045362299944467e-08,1.799991352150129273e+02
7.758532060787835805e-02,1.203896401867350761e-08,1.799991109377101282e+02
7.976339067929276438e-02,1.272439706465101341e-08,1.799990859788651676e+02
8.200260619934131301e-02,1.344885493559563177e-08,1.799990603193449203e+02
8.430468371788971127e-02,1.421455949255315146e-08,1.799990339394791761e+02
8.667138797389233040e-02,1.502385909724294331e-08,1.799990068190455759e+02
8.910453324821512866e-02,1.587923581431811442e-08,1.799989789372538951e+02
9.160598475443709754e-02,1.678331302368332839e-08,1.799989502727303829e+02
9.417766006869518480e-02,1.773886346621636756e-08,1.799989208035012780e+02
9.682153059967085751e-02,1.874881774756990414e-08,1.799988905069758687e+02
9.953962309984233647e-02,1.981627332613282559e-08,1.799988593599292415e+02
1.023340212191641702e-01,2.094450401271808455e-08,1.799988273384846025e+02
1.052068671023622809e-01,2.213697001111050007e-08,1.799987944180946897e+02
1.081603630310710024e-01,2.339732853026928303e-08,1.799987605735232705e+02
1.111967731120698938e-01,2.472944500073156071e-08,1.799987257788255022e+02
1.143184250129149759e-01,2.613740492961725419e-08,1.799986900073283493e+02
1.175277117462945192e-01,2.762552643059334436e-08,1.799986532316098646e+02
1.208270935044776506e-01,2.919837346722662378e-08,1.799986154234783271e+02
1.242190995452617380e-01,3.086076985034096496e-08,1.799985765539505849e+02
1.277063301308644094e-01,3.261781403230831310e-08,1.799985365932297441e+02
1.312914585212465457e-01,3.447489474364639068e-08,1.799984955106825169e+02
1.349772330233942608e-01,3.643770751987954184e-08,1.799984532748156880e+02
1.387664790981308627e-01,3.851227216934956200e-08,1.799984098532517578e+02
1.426621015260737535e-01,4.070495123554913622e-08,1.799983652127043854e+02
1.466670866343968427e-01,4.302246951060043418e-08,1.799983193189528095e+02
1.507845045861051780e-01,4.547193465972576960e-08,1.799982721368155012e+02
1.550175117335770292e-01,4.806085901996398497e-08,1.799982236301233058e+02
1.593693530381775358e-01,5.079718263998784656e-08,1.799981737616916746e+02
1.638433645577983822e-01,5.368929763168414828e-08,1.799981224932922146e+02
1.684429760042315261e-01,5.674607390818147745e-08,1.799980697856232155e+02
1.731717133723353619e-01,5.997688638726168178e-08,1.799980155982798067e+02
1.780332016430113962e-01,6.339164374358747840e-08,1.799979598897227220e+02
1.830311675620611978e-01,6.700081879792635154e-08,1.799979026172465524e+02
1.881694424970555557e-01,7.081548063657312921e-08,1.799978437369469759e+02
1.934519653744045387e-01,7.484732855947958889e-08,1.799977832036872769e+02
1.988827856988809872e-01,7.910872796120744264e-08,1.799977209710633872e+02
2.044660666579116715e-01,8.361274825474993147e-08,1.799976569913687285e+02
2.102060883130158486e-01,8.837320295453193493e-08,1.799975912155573212e+02
2.161072508808377646e-01,9.340469204152039309e-08,1.799975235932063811e+02
2.221740781062884751e-01,9.872264674037698347e-08,1.799974540724774670e+02
2.284112207303824471e-01,1.043433768459814459e-07,1.799973826000770316e+02
2.348234600554276463e-01,1.102841207444734786e-07,1.799973091212152099e+02
2.414157116103018974e-01,1.165630982822249006e-07,1.799972335795642095e+02
2.481930289186255190e-01,1.231995666448881956e-07,1.799971559172148261e+02
2.551606073727185064e-01,1.302138794178993631e-07,1.799970760746321048e+02
2.623237882163123591e-01,1.376275490095704649e-07,1.799969939906097807e+02
2.696880626390692481e-01,1.454633126282202003e-07,1.799969096022234112e+02
2.772590759860482645e-01,1.537452020156913609e-07,1.799968228447819172e+02
2.850426320853434725e-01,1.624986171511222105e-07,1.799967336517782144e+02
2.930446976972143069e-01,1.717504041510208352e-07,1.799966419548381396e+02
3.012714070881163941e-01,1.815289376045556778e-07,1.799965476836680125e+02
3.097290667331408232e-01,1.918642075965814114e-07,1.799964507660008053e+02
3.184241601504653185e-01,2.027879116852955237e-07,1.799963511275406631e+02
3.273633528715245711e-01,2.143335521166172808e-07,1.799962486919060041e+02
3.365534975507094573e-01,2.265365385734415738e-07,1.799961433805709987e+02
3.460016392185110701e-01,2.394342967748934675e-07,1.799960351128053162e+02
3.557150206821386162e-01,2.530663832586558942e-07,1.799959238056122217e+02
3.657010880777491479e-01,2.674746066984005602e-07,1.799958093736649687e+02
3.759674965785467782e-01,2.827031561284001070e-07,1.799956917292415426e+02
3.865221162631263807e-01,2.987987364685806079e-07,1.799955707821570172e+02
3.973730381485608421e-01,3.158107117656662264e-07,1.799954464396949163e+02
4.085285803928563331e-01,3.337912565897313667e-07,1.799953186065357329e+02
4.199972946715306299e-01,3.527955160504896447e-07,1.799951871846840561e+02
4.317879727332023521e-01,3.728817749240855931e-07,1.799950520733933956e+02
4.439096531392170975e-01,3.941116364090962989e-07,1.799949131690889885e+02
4.563716281924758422e-01,4.165502110599834112e-07,1.799947703652883604e+02
4.691834510607796327e-01,4.402663164774554668e-07,1.799946235525196130e+02
4.823549431001467602e-01,4.653326883681772784e-07,1.799944726182377508e+02
4.958962013837214244e-01,4.918262036211567572e-07,1.799943174467380516e+02
5.098176064420424369e-01,5.198281160849745687e-07,1.799941579190677032e+02
5.241298302206058857e-01,5.494243057689848482e-07,1.799939939129343713e+02
5.388438442608223244e-01,5.807055422327888919e-07,1.799938253026124926e+02
5.539709281106403038e-01,6.137677629717965635e-07,1.799936519588471242e+02
5.695226779712825316e-01,6.487123676526861082e-07,1.799934737487544396e+02
5.855110155867241373e-01,6.856465291011851370e-07,1.799932905357202060e+02
6.019481973827274235e-01,7.246835219959782536e-07,1.799931021792948513e+02
6.188468238624386109e-01,7.659430702768516675e-07,1.799929085350858884e+02
6.362198492657489268e-01,8.095517143325836918e-07,1.799927094546472404e+02
6.540805914998255588e-01,8.556431990947589669e-07,1.799925047853652700e+02
6.724427423484249378e-01,9.043588842278049662e-07,1.799922943703419946e+02
6.913203779678130934e-01,9.558481776733176905e-07,1.799920780482746068e+02
7.107279696773418642e-01,1.010268993878386249e-06,1.799918556533319816e+02
7.306803950529503489e-01,1.067788238113316354e-06,1.799916270150274045e+02
7.511929493320964601e-01,1.128582318364199288e-06,1.799913919580879735e+02
7.722813571388642551e-01,1.192837686370331648e-06,1.799911503023201362e+02
7.939617845382279659e-01,1.260751409465881130e-06,1.799909018624715031e+02
8.162508514287228900e-01,1.332531774979706482e-06,1.799906464480889952e+02
8.391656442830156548e-01,1.408398929047068951e-06,1.799903838633726707e+02
8.627237292461450435e-01,1.488585551792546307e-06,1.799901139070256590e+02
8.869431656014709064e-01,1.573337570955006730e-06,1.799898363720998304e+02
9.118425196146571210e-01,1.662914916143434757e-06,1.799895510458370893e+02
9.374408787662995568e-01,1.757592316037000505e-06,1.799892577095063189e+02
9.637578663841088744e-01,1.857660140974516122e-06,1.799889561382356646e+02
9.908136566858670724e-01,1.963425293517636523e-06,1.799886461008399579e+02
1.018628990244687449e+00,2.075212149719311363e-06,1.799883273596437618e+02
1.047225189888434382e+00,2.193363553984551994e-06,1.799879996702988763e+02
1.076624177045493402e+00,2.318241870574950022e-06,1.799876627815970664e+02
1.106848488549411869e+00,2.450230094982114335e-06,1.799873164352775632e+02
1.137921293915315157e+00,2.589733028578962599e-06,1.799869603658286792e+02
1.169866413101307012e+00,2.737178520151672930e-06,1.799865943002847928e+02
1.202708334768511911e+00,2.893018778120609248e-06,1.799862179580165105e+02
1.236472235053714952e+00,3.057731757474968079e-06,1.799858310505157135e+02
1.271183996869028832e+00,3.231822625675534117e-06,1.799854332811743234e+02
1.306870229743346323e+00,3.415825312021742803e-06,1.799850243450568428e+02
1.343558290220826290e+00,3.610304145235738246e-06,1.799846039286664734e+02
1.381276302832009417e+00,3.815855584286295435e-06,1.799841717097047535e+02
1.420053181653683216e+00,4.033110047761983321e-06,1.799837273568243461e+02
1.459918652473978673e+00,4.262733847404821961e-06,1.799832705293750337e+02
1.500903275579736684e+00,4.505431231735740855e-06,1.799828008771423526e+02
1.543038469183564576e+00,4.761946546040360444e-06,1.799823180400790932e+02
1.586356533508589628e+00,5.033066515341224590e-06,1.799818216480290403e+02
1.630890675549332647e+00,5.319622657359383574e-06,1.799813113204432966e+02
1.676675034527699282e+00,5.622493832867448586e-06,1.799807866660882212e+02
1.723744708063619901e+00,5.942608941257746835e-06,1.799802472827453528e+02
1.772135779080358464e+00,6.280949769594483179e-06,1.799796927569030629e+02
1.821885343465167173e+00,6.638554003890326038e-06,1.799791226634390569e+02
1.873031538506436444e+00,7.016518411844933628e-06,1.799785365652947178e+02
1.925613572129198703e+00,7.416002206809878246e-06,1.799779340131393042e+02
1.979671752951332575e+00,7.838230603299702200e-06,1.799773145450258198e+02
2.035247521183577657e+00,8.284498574957614115e-06,1.799766776860359698e+02
2.092383480396976747e+00,8.756174826504639432e-06,1.799760229479165332e+02
2.151123430182167340e+00,9.254705991858815084e-06,1.799753498287041111e+02
2.211512399725488631e+00,9.781621071304116556e-06,1.799746578123403253e+02
2.273596682327717389e+00,1.033853612132369305e-05,1.799739463682757332e+02
2.337423870891814914e+00,1.092715921148616188e-05,1.799732149510627437e+02
2.403042894406969499e+00,1.154929566359501073e-05,1.799724629999369654e+02
2.470504055456825387e+00,1.220685358917604993e-05,1.799716899383869588e+02
2.539859068780726314e+00,1.290184974229524445e-05,1.799708951737117104e+02
2.611161100917459343e+00,1.363641570566589930e-05,1.799700780965655440e+02
2.684464810961962655e+00,1.441280442902886706e-05,1.799692380804906975e+02
2.759826392466180334e+00,1.523339713986986347e-05,1.799683744814361148e+02
2.837303616516211324e+00,1.610071064768200217e-05,1.799674866372631641e+02
2.916955876018795912e+00,1.701740506419034319e-05,1.799665738672371731e+02
2.998844231231027724e+00,1.798629196323168111e-05,1.799656354715047826e+02
3.083031456568277040e+00,1.901034300533467199e-05,1.799646707305563496e+02
3.169582088726115021e+00,2.009269905347111526e-05,1.799636789046735714e+02
3.258562476153226584e+00,2.123667980795965150e-05,1.799626592333611370e+02
3.350040829913132789e+00,2.244579399009627197e-05,1.799616109347626036e+02
3.444087275973823470e+00,2.372375010577403685e-05,1.799605332050596758e+02
3.540773908965269889e+00,2.507446782213413759e-05,1.799594252178546014e+02
3.640174847446141282e+00,2.650208999217700789e-05,1.799582861235350890e+02
3.742366290721980793e+00,2.801099536425082477e-05,1.799571150486214322e+02
3.847426577258505898e+00,2.960581201544284027e-05,1.799559110950948195e+02
3.955436244734701567e+00,3.129143155012126319e-05,1.799546733397071421e+02
4.066478091781857707e+00,3.307302410723139528e-05,1.799534008332710187e+02
4.180637241455757547e+00,3.495605422243293543e-05,1.799520925999297560e+02
4.298001206490798864e+00,3.694629759379828605e-05,1.799507476364067315e+02
4.418659956385941001e+00,3.904985880256708403e-05,1.799493649112334879e+02
4.542705986374042659e+00,4.127319004339455072e-05,1.799479433639560284e+02
4.670234388327335395e+00,4.362311092163351044e-05,1.799464819043186026e+02
4.801342923653449724e+00,4.610682937847642815e-05,1.799449794114243275e+02
4.936132098237917099e+00,4.873196380825599484e-05,1.799434347328719355e+02
5.074705239490466369e+00,5.150656643586958803e-05,1.799418466838683912e+02
5.217168575554349097e+00,5.443914802617957584e-05,1.799402140463157025e+02
5.363631316739239985e+00,5.753870400133723748e-05,1.799385355678725205e+02
5.514205739240302329e+00,6.081474204632318891e-05,1.799368099609884837e+02
5.669007271207433973e+00,6.427731128757629021e-05,1.799350359019112489e+02
5.828154581230846176e+00,6.793703313443994504e-05,1.799332120296655546e+02
5.991769669310619051e+00,7.180513387827393973e-05,1.799313369450026983e+02
6.159977960380168760e+00,7.589347914951047357e-05,1.799294092093204824e+02
6.332908400455115050e+00,8.021461033865574265e-05,1.799274273435521536e+02
6.510693555481461559e+00,8.478178309331153688e-05,1.799253898270237926e+02
6.693469712958660445e+00,8.960900800968945787e-05,1.799232950962785367e+02
6.881376986415670416e+00,9.471109364388055445e-05,1.799211415438678046e+02
7.074559422819878485e+00,1.001036919753003565e-04,1.799189275171076190e+02
7.273165113001454074e+00,1.058033464623212515e-04,1.799166513167989194e+02
7.477346305177587915e+00,1.118275428381105337e-04,1.799143111959119210e+02
7.687259521663728279e+00,1.181947628031788038e-04,1.799119053582317918e+02
7.903065678861348253e+00,1.249245407801108214e-04,1.799094319569658182e+02
8.124930210614047965e+00,1.320375239054292897e-04,1.799068890933105536e+02
8.353023195026779035e+00,1.395555354435857112e-04,1.799042748149769295e+02
8.587519484845170581e+00,1.475016418186719358e-04,1.799015871146736743e+02
8.828598841495150396e+00,1.559002234706858528e-04,1.798988239285458803e+02
9.076446072885357097e+00,1.647770497550450663e-04,1.798959831345689508e+02
9.331251175078250526e+00,1.741593581166213291e-04,1.798930625508953085e+02
9.593209477938241747e+00,1.840759377828447211e-04,1.798900599341536690e+02
9.862521794868785108e+00,1.945572182345053512e-04,1.798869729776978659e+02
1.013939457675291678e+01,2.056353627277433956e-04,1.798837993098049992e+02
1.042404007021556822e+01,2.173443671564832336e-04,1.798805364918207772e+02
1.071667648032863340e+01,2.297201645612078843e-04,1.798771820162500319e+02
1.101752813788387364e+01,2.428007356076284599e-04,1.798737333047913012e+02
1.132682567136153828e+01,2.566262253774395630e-04,1.798701877063134020e+02
1.164480618372686749e+01,2.712390668331354305e-04,1.798665424947718066e+02
1.197171343418966849e+01,2.866841113397414578e-04,1.798627948670633145e+02
1.230779802506664566e+01,3.030087666484839099e-04,1.798589419408170329e+02
1.265331759388942956e+01,3.202631427708307410e-04,1.798549807521191610e+02
1.300853701090570524e+01,3.385002061961674418e-04,1.798509082531693650e+02
1.337372858212496318e+01,3.577759429326552516e-04,1.798467213098671209e+02
1.374917225806419019e+01,3.781495308786222997e-04,1.798424166993247866e+02
1.413515584835395700e+01,3.996835220613571588e-04,1.798379911073056405e+02
1.453197524236895433e+01,4.224440353113483103e-04,1.798334411255836756e+02
1.493993463605257688e+01,4.465009599731441735e-04,1.798287632492226749e+02
1.535934676510897035e+01,4.719281712890040161e-04,1.798239538737722398e+02
