# w,mag,phase
1.000000000000000000e+01,1.996408974695086380e+00,-3.433972938112778372e+00
1.018628990244687493e+01,1.996274283281188389e+00,-3.497800132522326688e+00
1.037605019766911774e+01,1.996134553467441952e+00,-3.562808173809965062e+00
1.056934553557988288e+01,1.995989597819103123e+00,-3.629018595993223517e+00
1.076624177045493269e+01,1.995839222007722125e+00,-3.696453308050948294e+00
1.096680598336868506e+01,1.995683224563635561e+00,-3.765134599438143326e+00
1.117110650504824143e+01,1.995521396620040244e+00,-3.835085145621875746e+00
1.137921293915315069e+01,1.995353521648385753e+00,-3.906328013634156271e+00
1.159119618598885637e+01,1.995179375184844339e+00,-3.978886667637434815e+00
1.180712846666190252e+01,1.994998724547586200e+00,-4.052784974497989801e+00
1.202708334768512088e+01,1.994811328544604079e+00,-4.128047209362175174e+00
1.225113576604118926e+01,1.994616937171819204e+00,-4.204698061230095263e+00
1.247936205471311411e+01,1.994415291301188331e+00,-4.282762638520908993e+00
1.271183996869028832e+01,1.994206122358551436e+00,-4.362266474623535117e+00
1.294864871145904317e+01,1.993989151990928077e+00,-4.443235533426154404e+00
1.318986896198669889e+01,1.993764091722990184e+00,-4.525696214817372720e+00
1.343558290220825668e+01,1.993530642602430403e+00,-4.609675360151497259e+00
1.368587424502518424e+01,1.993288494833931113e+00,-4.695200257669862154e+00
1.394082826282577869e+01,1.993037327401462777e+00,-4.782298647869587249e+00
1.420053181653682373e+01,1.992776807678616091e+00,-4.870998728810636003e+00
1.446507338521646346e+01,1.992506591026687035e+00,-4.961329161351426542e+00
1.473454309619835101e+01,1.992226320380228177e+00,-5.053319074302655700e+00
1.500903275579735840e+01,1.991935625819788891e+00,-5.146998069488354588e+00
1.528863588058730194e+01,1.991634124131557160e+00,-5.242396226702505935e+00
1.557344772926134269e+01,1.991321418353635631e+00,-5.339544108548855306e+00
1.586356533508590516e+01,1.990997097308675245e+00,-5.438472765150814681e+00
1.615908753895918437e+01,1.990660735122607106e+00,-5.539213738717577051e+00
1.646011502308550689e+01,1.990311890729211886e+00,-5.641799067951716040e+00
1.676675034527699992e+01,1.989950107360280329e+00,-5.746261292282782485e+00
1.707909797389427808e+01,1.989574912021132347e+00,-5.852633455910401850e+00
1.739726432343801577e+01,1.989185814951260456e+00,-5.960949111639538778e+00
1.772135779080359441e+01,1.988782309069897947e+00,-6.071242324489596776e+00
1.805148879221109226e+01,1.988363869406307272e+00,-6.183547675058005844e+00
1.838776980082327839e+01,1.987929952514626342e+00,-6.297900262617883271e+00
1.873031538506437599e+01,1.987479995873097982e+00,-6.414335707928286112e+00
1.907924224765266175e+01,1.987013417267569970e+00,-6.532890155734407678e+00
1.943466926536020267e+01,1.986529614159149304e+00,-6.653600276933861579e+00
1.979671752951332664e+01,1.986027963035933430e+00,-6.776503270384043986e+00
2.016551038724746547e+01,1.985507818748779352e+00,-6.901636864324108167e+00
2.054117348353064187e+01,1.984968513831091075e+00,-7.029039317383986685e+00
2.092383480396976836e+01,1.984409357802664697e+00,-7.158749419151318349e+00
2.131362471841437767e+01,1.983829636457654866e+00,-7.290806490265791417e+00
2.171067602537264918e+01,1.983228611136782948e+00,-7.425250382008949046e+00
2.211512399725488720e+01,1.982605517983960342e+00,-7.562121475355938038e+00
2.252710642645980244e+01,1.981959567187543403e+00,-7.701460679454159575e+00
2.294676367231935998e+01,1.981289942206510668e+00,-7.843309429492099305e+00
2.337423870891814914e+01,1.980595798981918287e+00,-7.987709683919982595e+00
2.380967717380358195e+01,1.979876265134042024e+00,-8.134703920982243375e+00
2.425322741760352940e+01,1.979130439145719844e+00,-8.284335134519933419e+00
2.470504055456825299e+01,1.978357389532467314e+00,-8.436646828999489145e+00
2.516527051405391546e+01,1.977556154000043698e+00,-8.591683013722452245e+00
2.563407409296515027e+01,1.976725738590233261e+00,-8.749488196168808685e+00
2.611161100917459521e+01,1.975865116815715528e+00,-8.910107374424809379e+00
2.659804395593758386e+01,1.974973228785005919e+00,-9.073586028644131218e+00
2.709353865732051503e+01,1.974048980318571012e+00,-9.239970111489363092e+00
2.759826392466180423e+01,1.973091242057341654e+00,-9.409306037498861741e+00
2.811239171408464088e+01,1.972098848564994844e+00,-9.581640671321963509e+00
2.863609718508115876e+01,1.971070597425504944e+00,-9.757021314763711928e+00
2.916955876018796090e+01,1.970005248337631798e+00,-9.935495692578244942e+00
2.971295818577334202e+01,1.968901522208165167e+00,-1.011711193694799071e+01
3.026648059395692059e+01,1.967758100245928565e+00,-1.030191857058408722e+01
3.083031456568276951e+01,1.966573623058713860e+00,-1.048996448838142292e+01
3.140465219496752169e+01,1.965346689755526510e+00,-1.068129893755988924e+01
3.198968915434537763e+01,1.964075857056710506e+00,-1.087597149622187587e+01
3.258562476153226584e+01,1.962759638414746988e+00,-1.107403205025412340e+01
3.319266204733190051e+01,1.961396503148737480e+00,-1.127553076850067804e+01
3.381100782480685041e+01,1.959984875595817799e+00,-1.148051807613220987e+01
3.444087275973823381e+01,1.958523134283006284e+00,-1.168904462613558337e+01
3.508247144239792448e+01,1.957009611123222692e+00,-1.190116126884651493e+01
3.573602246065788535e+01,1.955442590639510536e+00,-1.211691901944716854e+01
3.640174847446141371e+01,1.953820309221741436e+00,-1.233636902334981578e+01
3.707987629168170685e+01,1.952140954420400032e+00,-1.255956251938705215e+01
3.777063694539366168e+01,1.950402664282304688e+00,-1.278655080072910621e+01
3.847426577258503499e+01,1.948603526733468039e+00,-1.301738517344841028e+01
3.919100249433404315e+01,1.946741579014568346e+00,-1.325211691265242209e+01
3.992109129748051544e+01,1.944814807174858329e+00,-1.349079721610613447e+01
4.066478091781856108e+01,1.942821145630640123e+00,-1.373347715526696788e+01
4.142232472483895833e+01,1.940758476794770981e+00,-1.398020762365631597e+01
4.219398080805026297e+01,1.938624630784000935e+00,-1.423103928249409300e+01
4.298001206490796022e+01,1.936417385211259390e+00,-1.448602250352519327e+01
4.378068629038168780e+01,1.934134465070364239e+00,-1.474520730896993292e+01
4.459627626819093393e+01,1.931773542720926384e+00,-1.500864330853433515e+01
4.542705986374045324e+01,1.929332237981571163e+00,-1.527637963342050575e+01
4.627332011878691276e+01,1.926808118339889520e+00,-1.554846486728245303e+01
4.713534534786906960e+01,1.924198699287848813e+00,-1.582494697407860151e+01
4.801342923653449901e+01,1.921501444791669844e+00,-1.610587322277898537e+01
4.890787094139589897e+01,1.918713767905450673e+00,-1.639129010889239169e+01
4.981897519205160307e+01,1.915833031538054065e+00,-1.668124327278741958e+01
5.074705239490465658e+01,1.912856549383000093e+00,-1.697577741479057067e+01
5.169241873891598260e+01,1.909781587021280425e+00,-1.727493620705488908e+01
5.265539630332755650e+01,1.906605363207171555e+00,-1.757876220220386188e+01
5.363631316739240162e+01,1.903325051347202868e+00,-1.788729673876811432e+01
5.463550352214875971e+01,1.899937781182526875e+00,-1.820057984344530411e+01
5.565330778427645697e+01,1.896440640684901702e+00,-1.851865013022890949e+01
5.669007271207433973e+01,1.892830678176462778e+00,-1.884154469646694352e+01
5.774615152359820058e+01,1.889104904683321706e+00,-1.916929901592872554e+01
5.882190401699956084e+01,1.885260296532831559e+00,-1.950194682897612708e+01
5.991769669310618696e+01,1.881293798204074941e+00,-1.983952002995470210e+01
6.103390288028621313e+01,1.877202325440758379e+00,-2.018204855194096581e+01
6.217090286163826818e+01,1.872982768635241602e+00,-2.052956024900344190e+01
6.332908400455114872e+01,1.868631996491854075e+00,-2.088208077615802338e+01
6.450884089267692900e+01,1.864146859976977710e+00,-2.123963346722196732e+01
6.571057546036270480e+01,1.859524196562600151e+00,-2.160223921079570175e+01
6.693469712958660978e+01,1.854760834769114686e+00,-2.196991632462739830e+01
6.818162294944478674e+01,1.849853599012123873e+00,-2.234268042864185944e+01
6.945177773823695588e+01,1.844799314756832898e+00,-2.272054431694269994e+01
7.074559422819878307e+01,1.839594813982321497e+00,-2.310351782912454155e+01
7.206351321293053047e+01,1.834236940956544215e+00,-2.349160772126060692e+01
7.340598369757212538e+01,1.828722558321335345e+00,-2.388481753695941734e+01
7.477346305177587737e+01,1.823048553484977186e+00,-2.428314747891327130e+01
7.616641716552891239e+01,1.817211845318040808e+00,-2.468659428138948897e+01
7.758532060787835860e+01,1.811209391146199943e+00,-2.509515108414383278e+01
7.903065678861348431e+01,1.805038194031623355e+00,-2.550880730826285259e+01
8.050291812295981231e+01,1.798695310332265818e+00,-2.592754853446845686e+01
8.200260619934130091e+01,1.792177857526043638e+00,-2.635135638444366890e+01
8.353023195026779035e+01,1.785483022284375831e+00,-2.678020840576189343e+01
8.508631582640582280e+01,1.778608068777025375e+00,-2.721407796102436905e+01
8.667138797389233673e+01,1.771550347187510477e+00,-2.765293412182992938e+01
8.828598841495150396e+01,1.764307302415661027e+00,-2.809674156821839830e+01
8.993066723187622813e+01,1.756876482941121864e+00,-2.854546049424317289e+01
9.160598475443708821e+01,1.749255549818869770e+00,-2.899904652033929153e+01
9.331251175078250526e+01,1.741442285775020249e+00,-2.945745061316055668e+01
9.505082962189506190e+01,1.733434604368492282e+00,-2.992061901356237641e+01
9.682153059967080821e+01,1.725230559181438084e+00,-3.038849317340595491e+01
9.862521794868779068e+01,1.716828352998779561e+00,-3.086100970185289682e+01
1.004625061717340344e+02,1.708226346934765605e+00,-3.133810032180938876e+01
1.023340212191642280e+02,1.699423069462193681e+00,-3.181969183716192617e+01
1.042404007021555827e+02,1.690417225297893733e+00,-3.230570611142496062e+01
1.061822941099384678e+02,1.681207704096211897e+00,-3.279606005839452365e+01
1.081603630310709434e+02,1.671793588900731153e+00,-3.329066564536621797e+01
1.101752813788387328e+02,1.662174164303168444e+00,-3.378942990943995284e+01
1.122277356208507086e+02,1.652348924257549534e+00,-3.429225498738514943e+01
1.143184250129150286e+02,1.642317579497182489e+00,-3.479903815949242585e+01
1.164480618372685541e+02,1.632080064501912675e+00,-3.530967190777778342e+01
1.186173716452479141e+02,1.621636543963377308e+00,-3.582404398884605712e+01
1.208270935044775882e+02,1.610987418696853579e+00,-3.634203752164920331e+01
1.230779802506665845e+02,1.600133330949452315e+00,-3.686353109030596187e+01
1.253707987440919709e+02,1.589075169056257453e+00,-3.738839886206847041e+01
1.277063301308644725e+02,1.577814071398146334e+00,-3.791651072044379589e+01
1.300853701090570667e+02,1.566351429617873992e+00,-3.844773241339023429e+01
1.325087291997953969e+02,1.554688891054143429e+00,-3.898192571642397297e+01
1.349772330233941773e+02,1.542828360357186401e+00,-3.951894861037914097e+01
1.374917225806419196e+02,1.530772000253475262e+00,-4.005865547347681854e+01
1.400530545393219768e+02,1.518522231431887359e+00,-4.060089728726395464e+01
1.426621015260736840e+02,1.506081731528579937e+00,-4.114552185589564459e+01
1.453197524236895504e+02,1.493453433193277169e+00,-4.169237403814268106e+01
1.480269126739508465e+02,1.480640521225329520e+00,-4.224129599142028724e+01
1.507845045861051005e+02,1.467646428773878409e+00,-4.279212742704999783e+01
1.535934676510896963e+02,1.454474832602619117e+00,-4.334470587588673141e+01
1.564547588616095766e+02,1.441129647425954508e+00,-4.389886696336875360e+01
1.593693530381774508e+02,1.427615019329715906e+00,-4.445444469297925139e+01
1.623382431612278083e+02,1.413935318295997501e+00,-4.501127173704619366e+01
1.653624407094180526e+02,1.400095129857979792e+00,-4.556917973375252728e+01
1.684429760042315252e+02,1.386099245916787348e+00,-4.612799958918201071e+01
1.715808985610004811e+02,1.371952654758386236e+00,-4.668756178318813710e+01
1.747772774464680765e+02,1.357660530314237057e+00,-4.724769667784443072e+01
1.780332016430113811e+02,1.343228220714742793e+00,-4.780823482721523021e+01
1.813497804196495338e+02,1.328661236189483397e+00,-4.836900728717598241e+01
1.847281437099634047e+02,1.313965236372701684e+00,-4.892984592401237620e+01
1.881694424970555701e+02,1.299146017076471926e+00,-4.949058372053707444e+01
1.916748492056815110e+02,1.284209496597384037e+00,-5.005105507848269042e+01
1.952455581016861004e+02,1.269161701625404648e+00,-5.061109611595831126e+01
1.988827856988809799e+02,1.254008752825758854e+00,-5.117054495879501985e+01
2.025877711735017215e+02,1.238756850166250034e+00,-5.172924202465235055e+01
2.063617767863858603e+02,1.223412258063341529e+00,-5.228703029881256015e+01
2.102060883130158402e+02,1.207981290420590659e+00,-5.284375560065140576e+01
2.141220154815729302e+02,1.192470295632654942e+00,-5.339926683984305100e+01
2.181108924191519804e+02,1.176885641627085644e+00,-5.395341626143130043e+01
2.221740781062882490e+02,1.161233701014543707e+00,-5.450605967897902104e+01
2.263129568399529603e+02,1.145520836415886645e+00,-5.505705669509153921e+01
2.305289387051706171e+02,1.129753386031923545e+00,-5.560627090869593303e+01
2.348234600554276312e+02,1.113937649518399020e+00,-5.615357010854943809e+01
2.391979840020237305e+02,1.098079874225247554e+00,-5.669882645253774456e+01
2.436540009125465929e+02,1.082186241855061626e+00,-5.724191663241851558e+01
2.481930289186252594e+02,1.066262855591516789e+00,-5.778272202375262623e+01
2.528166144331500504e+02,1.050315727743797556e+00,-5.832112882085859695e+01
2.575263326771198535e+02,1.034350767948390315e+00,-5.885702815670926924e+01
2.623237882163123800e+02,1.018373771964558028e+00,-5.939031620777819143e+01
2.672106155079432597e+02,1.002390411094884692e+00,-5.992089428392062445e+01
2.721884794575179853e+02,9.864062222570988414e-01,-6.044866890345470267e+01
2.772590759860481171e+02,9.704265987284517170e-01,-6.097355185367757713e+01
2.824241326078435463e+02,9.544567815788180809e-01,-6.149546023712193943e+01
2.876854090190591364e+02,9.385018518039379698e-01,-6.201431650391815964e+01
2.930446976972144171e+02,9.225667231653960076e-01,-6.253004847068589100e+01
2.985038245118729492e+02,9.066561357395210852e-01,-6.304258932642835589e+01
3.040646493467068581e+02,8.907746501729942867e-01,-6.355187762594918865e+01
3.097290667331406553e+02,8.749266426390298612e-01,-6.405785727134831120e+01
3.154990064958088283e+02,8.591163004841217976e-01,-6.456047748219000937e+01
3.213764344100275707e+02,8.433476185520105695e-01,-6.505969275495921522e+01
3.273633528715247394e+02,8.276243961682611117e-01,-6.555546281244811269e+01
3.334618015786362548e+02,8.119502347661223807e-01,-6.604775254372704296e+01
3.396738582272209328e+02,7.963285361317328226e-01,-6.653653193536800359e+01
3.460016392185108884e+02,7.807625012446557378e-01,-6.702177599459152191e+01
3.524473003801584241e+02,7.652551296877664333e-01,-6.750346466501179066e+01
3.590130377007068319e+02,7.498092195990653241e-01,-6.798158273564864373e+01
3.657010880777489774e+02,7.344273681366680906e-01,-6.845611974386989118e+01
3.725137300800209346e+02,7.191119724273243863e-01,-6.892706987291462895e+01
3.794532847236938551e+02,7.038652309681251440e-01,-6.939443184463497971e+01
3.865221162631261791e+02,6.886891454506532950e-01,-6.985820880807541755e+01
3.937226329963479543e+02,6.735855229766617436e-01,-7.031840822448914707e+01
4.010572880855496010e+02,6.585559786344347133e-01,-7.077504174936875359e+01
4.085285803928561563e+02,6.436019384052374948e-01,-7.122812511204433861e+01
4.161390553316707042e+02,6.287246423697334663e-01,-7.167767799337596557e+01
4.238913057338778572e+02,6.139251481848549963e-01,-7.212372390204122041e+01
4.317879727332021389e+02,5.992043348023907701e-01,-7.256629004988987219e+01
4.398317466650223651e+02,5.845629064014533638e-01,-7.300540722680969452e+01
4.480253679829489784e+02,5.700013965079953060e-01,-7.344110967551810631e+01
4.563716281924758391e+02,5.555201722756533123e-01,-7.387343496666522924e+01
4.648733708020256472e+02,5.411194389033723295e-01,-7.430242387460485531e+01
4.735334922917116387e+02,5.267992441665075853e-01,-7.472812025416109805e+01
4.823549431001467269e+02,5.125594830393837009e-01,-7.515057091868925454e+01
4.913407286296362031e+02,4.983999023886087620e-01,-7.556982551970301643e+01
5.004939102700953413e+02,4.843201057177825564e-01,-7.598593642831094996e+01
5.098176064420424609e+02,4.703195579455736741e-01,-7.639895861868068039e+01
5.193149936590211837e+02,4.563975902004910878e-01,-7.680894955372215804e+01
5.289893076098151141e+02,4.425534046170008784e-01,-7.721596907315802127e+01
5.388438442608223795e+02,4.287860791189516130e-01,-7.762007928412475621e+01
5.488819609789671858e+02,4.150945721775555763e-01,-7.802134445442651156e+01
5.591070776755293537e+02,4.014777275324241113e-01,-7.841983090854154170e+01
5.695226779712819507e+02,3.879342788653704077e-01,-7.881560692646185373e+01
5.801323103833378809e+02,3.744628544178555951e-01,-7.920874264542706555e+01
5.909395895340965126e+02,3.610619815441103997e-01,-7.959930996459530661e+01
6.019481973827274714e+02,3.477300911929813720e-01,-7.998738245267864500e+01
6.131618844795768837e+02,3.344655223126677401e-01,-8.037303525855271857e+01
6.245844712439618434e+02,3.212665261733941846e-01,-8.075634502483808319e+01
6.362198492657482802e+02,3.081312706040889027e-01,-8.113738980443503124e+01
6.480719826311971019e+02,2.950578441399125396e-01,-8.151624897998327413e+01
6.601449092734883379e+02,2.820442600784068277e-01,-8.189300318620412611e+01
6.724427423484249857e+02,2.690884604427022930e-01,-8.226773423507478356e+01
6.849696716357440209e+02,2.561883198510415682e-01,-8.264052504377200137e+01
6.977299649665537800e+02,2.433416492924590502e-01,-8.301145956531617287e+01
7.107279696773412070e+02,2.305461998091672404e-01,-8.338062272183606183e+01
7.239681140910877275e+02,2.177996660866944045e-01,-8.374810034037029993e+01
7.374549090259546347e+02,2.050996899534417439e-01,-8.411397909111173021e+01
7.511929493320968731e+02,1.924438637917304795e-01,-8.447834642799818994e+01
7.651869154570817955e+02,1.798297338629547826e-01,-8.484129053154460109e+01
7.794415750404950813e+02,1.672548035497789520e-01,-8.520290025380984389e+01
7.939617845382275618e+02,1.547165365187872510e-01,-8.556326506538437116e+01
8.087524908770457159e+02,1.422123598072483064e-01,-8.592247500428371154e+01
8.238187331399601590e+02,1.297396668380580431e-01,-8.628062062662728238e+01
8.391656442830161495e+02,1.172958203671172206e-01,-8.663779295898079624e+01
8.547984528840405574e+02,1.048781553677411021e-01,-8.699408345223636729e+01
8.707224849239921696e+02,9.248398185683617823e-02,-8.734958393690418177e+01
8.869431656014704686e+02,8.011058766786725849e-02,-8.770438657968493601e+01
9.034660211810524970e+02,6.775524117572918892e-02,-8.805858384119392213e+01
9.202966808760410231e+02,5.541519397887039594e-02,-8.841226843470269614e+01
9.374408787662990790e+02,4.308768354408547968e-02,-8.876553328576615343e+01
9.549044557518077454e+02,3.076993581954664062e-02,-8.911847149259952516e+01
9.726933615426169126e+02,1.845916782172008636e-02,-8.947117628707066217e+01
9.908136566858665901e+02,6.152590201894795469e-03,-8.982374099617099716e+01
1.009271514630570778e+03,6.152590201894105916e-03,8.982374099617101137e+01
1.028073223830864663e+03,1.845916782171938553e-02,8.947117628707070480e+01
1.047225189888434443e+03,3.076993581954595020e-02,8.911847149259952516e+01
1.066733937734857136e+03,4.308768354408484824e-02,8.876553328576615343e+01
1.086606113854596742e+03,5.541519397886966736e-02,8.841226843470273877e+01
1.106848488549411968e+03,6.775524117572855054e-02,8.805858384119393634e+01
1.127467958244946203e+03,8.011058766786670338e-02,8.770438657968496443e+01
1.148471547840289077e+03,9.248398185683623374e-02,8.734958393690418177e+01
1.169866413101306989e+03,1.048781553677404915e-01,8.699408345223639571e+01
1.191659843098558667e+03,1.172958203671171928e-01,8.663779295898079624e+01
1.213859262690627702e+03,1.297396668380574325e-01,8.628062062662729659e+01
1.236472235053714940e+03,1.422123598072482231e-01,8.592247500428371154e+01
1.259506464258357710e+03,1.547165365187866126e-01,8.556326506538438537e+01
